   0.0000    875328
   0.0050    728999
   0.0100    592675
   0.0150    493537
   0.0200    430286
   0.0250    383749
   0.0300    358918
   0.0350    340881
   0.0400    315984
   0.0450    294446
   0.0500    283769
   0.0550    272305
   0.0600    255043
   0.0650    242718
   0.0700    225859
   0.0750    213234
   0.0800    204095
   0.0850    196857
   0.0900    189994
   0.0950    183493
   0.1000    174702
   0.1050    164524
   0.1100    151775
   0.1150    141988
   0.1200    131606
   0.1250    120763
   0.1300    110918
   0.1350    102136
   0.1400     92970
   0.1450     85033
   0.1500     75719
   0.1550     66864
   0.1600     59340
   0.1650     53424
   0.1700     48242
   0.1750     43335
   0.1800     38889
   0.1850     34359
   0.1900     30022
   0.1950     26757
   0.2000     23447
   0.2050     20519
   0.2100     17819
   0.2150     15221
   0.2200     12961
   0.2250     10612
   0.2300      8675
   0.2350      7332
   0.2400      5987
   0.2450      5162
   0.2500      4647
   0.2550      4223
   0.2600      3705
   0.2650      3356
   0.2700      2824
   0.2750      2494
   0.2800      2425
   0.2850      2319
   0.2900      2256
   0.2950      2155
   0.3000      2200
   0.3050      2017
   0.3100      1906
   0.3150      1660
   0.3200      1534
   0.3250      1380
   0.3300      1331
   0.3350      1299
   0.3400      1315
   0.3450      1271
   0.3500      1311
   0.3550      1198
   0.3600      1143
   0.3650      1019
   0.3700       897
   0.3750       848
   0.3800       773
   0.3850       793
   0.3900       767
   0.3950       783
   0.4000       721
   0.4050       688
   0.4100       656
   0.4150       542
   0.4200       470
   0.4250       414
   0.4300       393
   0.4350       387
   0.4400       431
   0.4450       398
   0.4500       476
   0.4550       420
   0.4600       439
   0.4650       343
   0.4700       310
   0.4750       274
   0.4800       294
   0.4850       283
   0.4900       301
   0.4950       326
   0.5000       354
   0.5050       334
   0.5100       273
   0.5150       261
   0.5200       263
   0.5250       245
   0.5300       228
   0.5350       213
   0.5400       238
   0.5450       205
   0.5500       268
   0.5550       261
   0.5600       260
   0.5650       237
   0.5700       212
   0.5750       216
   0.5800       202
   0.5850       183
   0.5900       189
   0.5950       176
   0.6000       195
   0.6050       199
   0.6100       195
   0.6150       201
   0.6200       176
   0.6250       180
   0.6300       164
   0.6350       158
   0.6400       164
   0.6450       169
   0.6500       175
   0.6550       173
   0.6600       186
   0.6650       164
   0.6700       176
   0.6750       161
   0.6800       171
   0.6850       169
   0.6900       159
   0.6950       159
   0.7000       164
   0.7050       174
   0.7100       207
   0.7150       180
   0.7200       145
   0.7250       144
   0.7300       125
   0.7350       116
   0.7400       132
   0.7450       117
   0.7500       121
   0.7550       112
   0.7600        99
   0.7650       118
   0.7700       106
   0.7750       104
   0.7800        77
   0.7850        75
   0.7900        82
   0.7950        63
   0.8000        55
   0.8050        75
   0.8100        66
   0.8150        77
   0.8200       101
   0.8250        76
   0.8300        79
   0.8350        58
   0.8400        62
   0.8450        71
   0.8500        68
   0.8550        54
   0.8600        63
   0.8650        58
   0.8700        66
   0.8750        51
   0.8800        60
   0.8850        59
   0.8900        48
   0.8950        64
   0.9000        50
   0.9050        45
   0.9100        53
   0.9150        58
   0.9200        41
   0.9250        55
   0.9300        34
   0.9350        58
   0.9400        52
   0.9450        46
   0.9500        48
   0.9550        42
   0.9600        33
   0.9650        41
   0.9700        44
   0.9750        36
   0.9800        36
   0.9850        45
   0.9900        27
   0.9950        31
   1.0000        33
   1.0050        33
   1.0100        32
   1.0150        28
   1.0200        33
   1.0250        34
   1.0300        23
   1.0350        26
   1.0400        31
   1.0450        32
   1.0500        38
   1.0550        28
   1.0600        31
   1.0650        26
   1.0700        22
   1.0750        24
   1.0800        25
   1.0850        22
   1.0900        20
   1.0950        16
   1.1000        26
   1.1050        13
   1.1100        19
   1.1150        22
   1.1200        14
   1.1250        24
   1.1300        23
   1.1350        19
   1.1400        22
   1.1450        24
   1.1500        17
   1.1550        25
   1.1600        20
   1.1650        18
   1.1700        13
   1.1750        16
   1.1800        18
   1.1850        19
   1.1900        11
   1.1950        20
   1.2000        18
   1.2050        12
   1.2100        12
   1.2150        24
   1.2200        10
   1.2250         9
   1.2300         9
   1.2350        12
   1.2400        10
   1.2450         7
   1.2500        13
   1.2550        14
   1.2600         7
   1.2650        12
   1.2700        12
   1.2750        10
   1.2800        10
   1.2850        12
   1.2900        16
   1.2950         6
   1.3000        12
   1.3050         6
   1.3100         9
   1.3150         5
   1.3200         6
   1.3250        13
   1.3300         5
   1.3350        11
   1.3400         7
   1.3450        10
   1.3500        11
   1.3550         8
   1.3600        11
   1.3650        13
   1.3700        11
   1.3750         3
   1.3800        11
   1.3850         4
   1.3900         6
   1.3950        13
   1.4000         8
   1.4050         9
   1.4100         5
   1.4150         7
   1.4200         7
   1.4250         8
   1.4300         4
   1.4350         4
   1.4400         6
   1.4450         5
   1.4500         8
   1.4550         3
   1.4600         7
   1.4650         2
   1.4700         3
   1.4750         7
   1.4800         7
   1.4850         7
   1.4900         3
   1.4950         8
   1.5000         4
   1.5050         3
   1.5100         4
   1.5150         4
   1.5200         2
   1.5250         4
   1.5300         2
   1.5350         2
   1.5400         3
   1.5450         1
   1.5500         7
   1.5550         6
   1.5600         2
   1.5650         6
   1.5700         5
   1.5750         4
   1.5800         5
   1.5850         3
   1.5900         2
   1.5950         0
   1.6000         5
   1.6050         4
   1.6100         3
   1.6150         3
   1.6200         2
   1.6250         1
   1.6300         3
   1.6350         2
   1.6400         3
   1.6450         2
   1.6500         4
   1.6550         2
   1.6600         7
   1.6650         1
   1.6700         3
   1.6750         3
   1.6800         1
   1.6850         1
   1.6900         0
   1.6950         1
   1.7000         2
   1.7050         3
   1.7100         2
   1.7150         4
   1.7200         3
   1.7250         3
   1.7300         3
   1.7350         1
   1.7400         0
   1.7450         2
   1.7500         4
   1.7550         2
   1.7600         0
   1.7650         5
   1.7700         3
   1.7750         1
   1.7800         2
   1.7850         3
   1.7900         0
   1.7950         2
   1.8000         5
   1.8050         0
   1.8100         1
   1.8150         0
   1.8200         4
   1.8250         3
   1.8300         2
   1.8350         1
   1.8400         2
   1.8450         2
   1.8500         2
   1.8550         2
   1.8600         1
   1.8650         2
   1.8700         1
   1.8750         3
   1.8800         3
   1.8850         1
   1.8900         1
   1.8950         2
   1.9000         2
   1.9050         2
   1.9100         0
   1.9150         5
   1.9200         1
   1.9250         2
   1.9300         3
   1.9350         1
   1.9400         0
   1.9450         2
   1.9500         1
   1.9550         0
   1.9600         3
   1.9650         0
   1.9700         0
   1.9750         2
   1.9800         2
   1.9850         0
   1.9900         3
   1.9950         1
   2.0000         2
   2.0050         0
   2.0100         1
   2.0150         1
   2.0200         3
   2.0250         1
   2.0300         0
   2.0350         2
   2.0400         1
   2.0450         0
   2.0500         1
   2.0550         2
   2.0600         0
   2.0650         1
   2.0700         1
   2.0750         1
   2.0800         2
   2.0850         1
   2.0900         2
   2.0950         1
   2.1000         0
   2.1050         1
   2.1100         0
   2.1150         0
   2.1200         0
   2.1250         1
   2.1300         0
   2.1350         1
   2.1400         1
   2.1450         2
   2.1500         3
   2.1550         1
   2.1600         1
   2.1650         1
   2.1700         0
   2.1750         1
   2.1800         1
   2.1850         2
   2.1900         0
   2.1950         3
   2.2000         1
   2.2050         1
   2.2100         0
   2.2150         1
   2.2200         2
   2.2250         0
   2.2300         2
   2.2350         0
   2.2400         2
   2.2450         1
   2.2500         0
   2.2550         0
   2.2600         0
   2.2650         1
   2.2700         1
   2.2750         2
   2.2800         0
   2.2850         1
   2.2900         1
   2.2950         1
   2.3000         0
   2.3050         0
   2.3100         0
   2.3150         1
   2.3200         0
   2.3250         2
   2.3300         1
   2.3350         1
   2.3400         1
   2.3450         1
   2.3500         2
   2.3550         0
   2.3600         1
   2.3650         3
   2.3700         0
   2.3750         0
   2.3800         1
   2.3850         1
   2.3900         0
   2.3950         0
   2.4000         0
   2.4050         0
   2.4100         0
   2.4150         1
   2.4200         1
   2.4250         1
   2.4300         1
   2.4350         0
   2.4400         1
   2.4450         0
   2.4500         1
   2.4550         2
   2.4600         0
   2.4650         1
   2.4700         0
   2.4750         1
   2.4800         2
   2.4850         2
   2.4900         1
   2.4950         1
   2.5000         1
