   0.0000    439939
   0.0050    387802
   0.0100    336767
   0.0150    293687
   0.0200    267812
   0.0250    243934
   0.0300    222509
   0.0350    205257
   0.0400    183371
   0.0450    165292
   0.0500    146799
   0.0550    122329
   0.0600    102671
   0.0650     90958
   0.0700     78015
   0.0750     66399
   0.0800     58790
   0.0850     52066
   0.0900     45110
   0.0950     39135
   0.1000     33840
   0.1050     28907
   0.1100     24496
   0.1150     21127
   0.1200     18060
   0.1250     15706
   0.1300     13799
   0.1350     12200
   0.1400     11232
   0.1450     10517
   0.1500      9743
   0.1550      9298
   0.1600      8940
   0.1650      8615
   0.1700      8187
   0.1750      7771
   0.1800      7428
   0.1850      6871
   0.1900      6337
   0.1950      5972
   0.2000      5532
   0.2050      5059
   0.2100      4598
   0.2150      4153
   0.2200      3465
   0.2250      3022
   0.2300      2721
   0.2350      2270
   0.2400      1973
   0.2450      1797
   0.2500      1449
   0.2550      1140
   0.2600      1064
   0.2650       873
   0.2700       857
   0.2750       723
   0.2800       663
   0.2850       605
   0.2900       506
   0.2950       442
   0.3000       424
   0.3050       356
   0.3100       358
   0.3150       301
   0.3200       295
   0.3250       300
   0.3300       268
   0.3350       240
   0.3400       224
   0.3450       210
   0.3500       215
   0.3550       223
   0.3600       187
   0.3650       181
   0.3700       209
   0.3750       168
   0.3800       164
   0.3850       177
   0.3900       141
   0.3950       131
   0.4000       135
   0.4050       119
   0.4100       126
   0.4150       141
   0.4200       120
   0.4250       106
   0.4300       122
   0.4350        95
   0.4400       111
   0.4450       101
   0.4500        97
   0.4550        88
   0.4600        96
   0.4650        96
   0.4700        73
   0.4750        89
   0.4800        81
   0.4850        69
   0.4900        77
   0.4950        71
   0.5000        79
   0.5050        75
   0.5100        84
   0.5150        69
   0.5200        71
   0.5250        63
   0.5300        68
   0.5350        56
   0.5400        48
   0.5450        57
   0.5500        60
   0.5550        47
   0.5600        46
   0.5650        47
   0.5700        53
   0.5750        39
   0.5800        39
   0.5850        37
   0.5900        41
   0.5950        45
   0.6000        40
   0.6050        38
   0.6100        31
   0.6150        38
   0.6200        40
   0.6250        38
   0.6300        32
   0.6350        28
   0.6400        28
   0.6450        25
   0.6500        23
   0.6550        29
   0.6600        30
   0.6650        25
   0.6700        29
   0.6750        28
   0.6800        19
   0.6850        24
   0.6900        17
   0.6950        20
   0.7000        30
   0.7050        25
   0.7100        26
   0.7150        14
   0.7200        20
   0.7250        15
   0.7300        23
   0.7350        21
   0.7400        14
   0.7450        26
   0.7500        13
   0.7550        21
   0.7600        17
   0.7650        20
   0.7700        17
   0.7750        12
   0.7800        20
   0.7850        17
   0.7900        18
   0.7950        22
   0.8000        11
   0.8050        19
   0.8100        15
   0.8150        11
   0.8200        14
   0.8250        19
   0.8300        15
   0.8350        18
   0.8400        20
   0.8450        13
   0.8500        12
   0.8550        20
   0.8600        13
   0.8650        13
   0.8700         9
   0.8750        13
   0.8800        14
   0.8850        19
   0.8900        12
   0.8950        14
   0.9000        10
   0.9050         9
   0.9100         9
   0.9150        11
   0.9200        11
   0.9250        11
   0.9300         6
   0.9350         8
   0.9400        11
   0.9450         9
   0.9500        15
   0.9550        10
   0.9600         9
   0.9650        12
   0.9700        11
   0.9750         7
   0.9800         6
   0.9850        11
   0.9900        10
   0.9950        13
   1.0000        11
   1.0050         6
   1.0100         3
   1.0150         7
   1.0200         4
   1.0250        11
   1.0300         7
   1.0350         4
   1.0400         7
   1.0450         3
   1.0500         5
   1.0550         6
   1.0600         8
   1.0650         7
   1.0700         6
   1.0750         3
   1.0800         4
   1.0850         5
   1.0900         4
   1.0950         3
   1.1000        12
   1.1050         7
   1.1100         9
   1.1150         5
   1.1200         2
   1.1250         3
   1.1300         7
   1.1350         5
   1.1400         6
   1.1450         5
   1.1500         4
   1.1550        10
   1.1600        12
   1.1650         5
   1.1700         2
   1.1750         5
   1.1800         4
   1.1850         5
   1.1900        11
   1.1950         6
   1.2000         2
   1.2050         3
   1.2100         8
   1.2150         2
   1.2200         4
   1.2250         3
   1.2300         5
   1.2350         4
   1.2400         5
   1.2450         5
   1.2500         2
   1.2550         4
   1.2600         3
   1.2650         2
   1.2700         4
   1.2750         3
   1.2800         4
   1.2850         1
   1.2900         8
   1.2950         4
   1.3000         2
   1.3050         2
   1.3100         4
   1.3150         4
   1.3200         0
   1.3250         4
   1.3300         4
   1.3350         1
   1.3400         1
   1.3450         1
   1.3500         4
   1.3550         3
   1.3600         0
   1.3650         4
   1.3700         0
   1.3750         4
   1.3800         2
   1.3850         3
   1.3900         1
   1.3950         4
   1.4000         2
   1.4050         2
   1.4100         3
   1.4150         2
   1.4200         4
   1.4250         3
   1.4300         3
   1.4350         1
   1.4400         2
   1.4450         1
   1.4500         3
   1.4550         0
   1.4600         1
   1.4650         1
   1.4700         2
   1.4750         3
   1.4800         2
   1.4850         0
   1.4900         3
   1.4950         0
   1.5000         1
   1.5050         3
   1.5100         2
   1.5150         2
   1.5200         3
   1.5250         1
   1.5300         2
   1.5350         2
   1.5400         1
   1.5450         2
   1.5500         1
   1.5550         4
   1.5600         1
   1.5650         2
   1.5700         0
   1.5750         2
   1.5800         4
   1.5850         2
   1.5900         2
   1.5950         3
   1.6000         1
   1.6050         1
   1.6100         2
   1.6150         2
   1.6200         1
   1.6250         2
   1.6300         3
   1.6350         2
   1.6400         5
   1.6450         0
   1.6500         3
   1.6550         2
   1.6600         0
   1.6650         2
   1.6700         1
   1.6750         2
   1.6800         3
   1.6850         1
   1.6900         2
   1.6950         3
   1.7000         0
   1.7050         2
   1.7100         1
   1.7150         1
   1.7200         0
   1.7250         1
   1.7300         1
   1.7350         2
   1.7400         2
   1.7450         1
   1.7500         1
   1.7550         4
   1.7600         0
   1.7650         2
   1.7700         1
   1.7750         1
   1.7800         2
   1.7850         0
   1.7900         2
   1.7950         4
   1.8000         2
   1.8050         0
   1.8100         0
   1.8150         0
   1.8200         0
   1.8250         0
   1.8300         0
   1.8350         2
   1.8400         1
   1.8450         3
   1.8500         0
   1.8550         0
   1.8600         0
   1.8650         0
   1.8700         1
   1.8750         2
   1.8800         0
   1.8850         3
   1.8900         0
   1.8950         2
   1.9000         1
   1.9050         0
   1.9100         1
   1.9150         0
   1.9200         1
   1.9250         0
   1.9300         2
   1.9350         0
   1.9400         0
   1.9450         1
   1.9500         0
   1.9550         0
   1.9600         2
   1.9650         0
   1.9700         1
   1.9750         1
   1.9800         1
   1.9850         2
   1.9900         1
   1.9950         0
   2.0000         0
   2.0050         2
   2.0100         1
   2.0150         0
   2.0200         0
   2.0250         1
   2.0300         1
   2.0350         0
   2.0400         0
   2.0450         0
   2.0500         0
   2.0550         2
   2.0600         1
   2.0650         0
   2.0700         4
   2.0750         1
   2.0800         0
   2.0850         0
   2.0900         1
   2.0950         0
   2.1000         0
   2.1050         0
   2.1100         0
   2.1150         2
   2.1200         0
   2.1250         0
   2.1300         2
   2.1350         0
   2.1400         1
   2.1450         2
   2.1500         1
   2.1550         2
   2.1600         0
   2.1650         0
   2.1700         2
   2.1750         0
   2.1800         2
   2.1850         2
   2.1900         0
   2.1950         0
   2.2000         0
   2.2050         0
   2.2100         0
   2.2150         0
   2.2200         0
   2.2250         0
   2.2300         0
   2.2350         0
   2.2400         1
   2.2450         2
   2.2500         1
   2.2550         2
   2.2600         2
   2.2650         0
   2.2700         0
   2.2750         1
   2.2800         0
   2.2850         1
   2.2900         1
   2.2950         0
   2.3000         1
   2.3050         0
   2.3100         0
   2.3150         0
   2.3200         1
   2.3250         0
   2.3300         1
   2.3350         1
   2.3400         0
   2.3450         0
   2.3500         0
   2.3550         0
   2.3600         0
   2.3650         0
   2.3700         2
   2.3750         0
   2.3800         0
   2.3850         0
   2.3900         0
   2.3950         2
   2.4000         0
   2.4050         1
   2.4100         0
   2.4150         0
   2.4200         0
   2.4250         2
   2.4300         0
   2.4350         1
   2.4400         2
   2.4450         0
   2.4500         2
   2.4550         0
   2.4600         0
   2.4650         2
   2.4700         0
   2.4750         1
   2.4800         1
   2.4850         1
   2.4900         0
   2.4950         0
   2.5000         1
