   0.0000   5291690
   0.0050   5830110
   0.0100   6158950
   0.0150   6225290
   0.0200   5953140
   0.0250   5357470
   0.0300   4538480
   0.0350   3659650
   0.0400   2839730
   0.0450   2259450
   0.0500   1926730
   0.0550   1760680
   0.0600   1693070
   0.0650   1671170
   0.0700   1697650
   0.0750   1733210
   0.0800   1794030
   0.0850   1853740
   0.0900   1923910
   0.0950   1974720
   0.1000   2052820
   0.1050   2127360
   0.1100   2174240
   0.1150   2244810
   0.1200   2324310
   0.1250   2379360
   0.1300   2440820
   0.1350   2486980
   0.1400   2551060
   0.1450   2609370
   0.1500   2661000
   0.1550   2695410
   0.1600   2734050
   0.1650   2777880
   0.1700   2812210
   0.1750   2837860
   0.1800   2851620
   0.1850   2854370
   0.1900   2867480
   0.1950   2825190
   0.2000   2731750
   0.2050   2595750
   0.2100   2430340
   0.2150   2240620
   0.2200   2009080
   0.2250   1765370
   0.2300   1491460
   0.2350   1228400
   0.2400    969780
   0.2450    768195
   0.2500    591732
   0.2550    445971
   0.2600    349191
   0.2650    297311
   0.2700    264747
   0.2750    239412
   0.2800    210365
   0.2850    180523
   0.2900    151053
   0.2950    128371
   0.3000    112540
   0.3050    105353
   0.3100    101251
   0.3150     97850
   0.3200     92299
   0.3250     83873
   0.3300     74146
   0.3350     64718
   0.3400     57605
   0.3450     52920
   0.3500     51375
   0.3550     50680
   0.3600     49839
   0.3650     47392
   0.3700     43784
   0.3750     39880
   0.3800     35284
   0.3850     31738
   0.3900     29409
   0.3950     28679
   0.4000     29141
   0.4050     28525
   0.4100     28211
   0.4150     26169
   0.4200     24038
   0.4250     21813
   0.4300     19393
   0.4350     18051
   0.4400     17386
   0.4450     17247
   0.4500     17268
   0.4550     17381
   0.4600     16765
   0.4650     15966
   0.4700     14232
   0.4750     13038
   0.4800     11667
   0.4850     10950
   0.4900     10937
   0.4950     11013
   0.5000     11172
   0.5050     11264
   0.5100     10778
   0.5150     10012
   0.5200      9270
   0.5250      8180
   0.5300      7350
   0.5350      6988
   0.5400      6896
   0.5450      7097
   0.5500      7371
   0.5550      7432
   0.5600      7304
   0.5650      6852
   0.5700      6255
   0.5750      5573
   0.5800      5024
   0.5850      4616
   0.5900      4678
   0.5950      4833
   0.6000      5022
   0.6050      5014
   0.6100      4987
   0.6150      4753
   0.6200      4402
   0.6250      4120
   0.6300      3533
   0.6350      3207
   0.6400      3067
   0.6450      3209
   0.6500      3369
   0.6550      3533
   0.6600      3518
   0.6650      3439
   0.6700      3154
   0.6750      2899
   0.6800      2564
   0.6850      2294
   0.6900      2241
   0.6950      2218
   0.7000      2232
   0.7050      2470
   0.7100      2367
   0.7150      2403
   0.7200      2304
   0.7250      2166
   0.7300      1947
   0.7350      1712
   0.7400      1587
   0.7450      1589
   0.7500      1560
   0.7550      1684
   0.7600      1704
   0.7650      1746
   0.7700      1662
   0.7750      1595
   0.7800      1508
   0.7850      1349
   0.7900      1210
   0.7950      1075
   0.8000      1062
   0.8050      1245
   0.8100      1221
   0.8150      1211
   0.8200      1247
   0.8250      1213
   0.8300      1099
   0.8350       971
   0.8400       967
   0.8450       861
   0.8500       844
   0.8550       806
   0.8600       855
   0.8650       817
   0.8700       873
   0.8750       904
   0.8800       844
   0.8850       748
   0.8900       658
   0.8950       692
   0.9000       645
   0.9050       562
   0.9100       580
   0.9150       597
   0.9200       624
   0.9250       661
   0.9300       646
   0.9350       565
   0.9400       566
   0.9450       514
   0.9500       473
   0.9550       417
   0.9600       435
   0.9650       452
   0.9700       480
   0.9750       478
   0.9800       480
   0.9850       428
   0.9900       428
   0.9950       366
   1.0000       319
   1.0050       314
   1.0100       340
   1.0150       317
   1.0200       333
   1.0250       346
   1.0300       318
   1.0350       376
   1.0400       285
   1.0450       344
   1.0500       296
   1.0550       265
   1.0600       232
   1.0650       235
   1.0700       276
   1.0750       244
   1.0800       281
   1.0850       279
   1.0900       242
   1.0950       243
   1.1000       204
   1.1050       204
   1.1100       176
   1.1150       186
   1.1200       199
   1.1250       213
   1.1300       180
   1.1350       201
   1.1400       181
   1.1450       170
   1.1500       165
   1.1550       153
   1.1600       157
   1.1650       130
   1.1700       151
   1.1750       142
   1.1800       149
   1.1850       154
   1.1900       146
   1.1950       140
   1.2000       132
   1.2050       113
   1.2100       115
   1.2150       118
   1.2200       115
   1.2250       107
   1.2300       102
   1.2350       109
   1.2400       124
   1.2450       107
   1.2500       105
   1.2550       105
   1.2600        80
   1.2650        95
   1.2700        77
   1.2750        75
   1.2800        82
   1.2850        93
   1.2900        81
   1.2950        77
   1.3000        80
   1.3050        89
   1.3100        80
   1.3150        76
   1.3200        77
   1.3250        53
   1.3300        58
   1.3350        48
   1.3400        75
   1.3450        63
   1.3500        56
   1.3550        67
   1.3600        71
   1.3650        63
   1.3700        49
   1.3750        57
   1.3800        49
   1.3850        47
   1.3900        52
   1.3950        37
   1.4000        43
   1.4050        49
   1.4100        49
   1.4150        45
   1.4200        53
   1.4250        43
   1.4300        37
   1.4350        51
   1.4400        34
   1.4450        40
   1.4500        27
   1.4550        47
   1.4600        36
   1.4650        36
   1.4700        28
   1.4750        37
   1.4800        30
   1.4850        37
   1.4900        32
   1.4950        35
   1.5000        23
   1.5050        27
   1.5100        40
   1.5150        43
   1.5200        21
   1.5250        28
   1.5300        27
   1.5350        17
   1.5400        33
   1.5450        29
   1.5500        14
   1.5550        25
   1.5600        17
   1.5650        24
   1.5700        22
   1.5750        24
   1.5800        16
   1.5850        23
   1.5900        22
   1.5950        19
   1.6000        22
   1.6050        19
   1.6100        15
   1.6150        25
   1.6200        17
   1.6250        17
   1.6300        21
   1.6350        15
   1.6400        24
   1.6450        17
   1.6500        12
   1.6550        20
   1.6600        18
   1.6650        15
   1.6700        16
   1.6750        13
   1.6800        15
   1.6850        13
   1.6900        15
   1.6950        11
   1.7000        11
   1.7050        13
   1.7100        15
   1.7150        14
   1.7200        15
   1.7250        16
   1.7300        10
   1.7350        10
   1.7400        12
   1.7450        11
   1.7500         8
   1.7550         8
   1.7600        11
   1.7650         8
   1.7700         5
   1.7750        11
   1.7800         3
   1.7850         5
   1.7900        14
   1.7950         9
   1.8000        11
   1.8050         7
   1.8100         9
   1.8150        16
   1.8200        12
   1.8250         6
   1.8300        10
   1.8350         6
   1.8400        11
   1.8450         7
   1.8500         8
   1.8550         7
   1.8600         7
   1.8650         6
   1.8700         9
   1.8750        11
   1.8800        10
   1.8850         7
   1.8900         8
   1.8950        10
   1.9000         7
   1.9050         9
   1.9100         9
   1.9150         4
   1.9200         7
   1.9250         7
   1.9300         2
   1.9350         5
   1.9400         6
   1.9450         7
   1.9500         3
   1.9550         6
   1.9600         5
   1.9650         2
   1.9700        11
   1.9750         4
   1.9800         6
   1.9850         2
   1.9900         5
   1.9950         4
   2.0000         7
   2.0050         7
   2.0100         4
   2.0150         7
   2.0200         3
   2.0250         5
   2.0300         5
   2.0350         4
   2.0400         5
   2.0450         4
   2.0500         2
   2.0550         3
   2.0600         1
   2.0650         4
   2.0700         5
   2.0750         3
   2.0800         3
   2.0850         0
   2.0900         5
   2.0950         4
   2.1000         4
   2.1050         3
   2.1100         4
   2.1150         2
   2.1200         2
   2.1250         2
   2.1300         4
   2.1350         1
   2.1400         1
   2.1450         1
   2.1500         4
   2.1550         2
   2.1600         3
   2.1650         1
   2.1700         2
   2.1750         4
   2.1800         4
   2.1850         2
   2.1900         3
   2.1950         2
   2.2000         3
   2.2050         2
   2.2100         1
   2.2150         3
   2.2200         2
   2.2250         3
   2.2300         2
   2.2350         3
   2.2400         4
   2.2450         1
   2.2500         4
   2.2550         1
   2.2600         2
   2.2650         1
   2.2700         0
   2.2750         0
   2.2800         3
   2.2850         0
   2.2900         1
   2.2950         2
   2.3000         3
   2.3050         3
   2.3100         0
   2.3150         0
   2.3200         0
   2.3250         2
   2.3300         2
   2.3350         0
   2.3400         3
   2.3450         1
   2.3500         0
   2.3550         2
   2.3600         3
   2.3650         3
   2.3700         3
   2.3750         3
   2.3800         1
   2.3850         4
   2.3900         1
   2.3950         2
   2.4000         2
   2.4050         2
   2.4100         2
   2.4150         1
   2.4200         0
   2.4250         5
   2.4300         0
   2.4350         0
   2.4400         1
   2.4450         2
   2.4500         0
   2.4550         1
   2.4600         1
   2.4650         3
   2.4700         2
   2.4750         0
   2.4800         1
   2.4850         1
   2.4900         2
   2.4950         6
   2.5000         1
