   0.0000   4204820
   0.0050   4944950
   0.0100   5585660
   0.0150   5928710
   0.0200   5975850
   0.0250   5747220
   0.0300   5264320
   0.0350   4531370
   0.0400   3688970
   0.0450   2928260
   0.0500   2423210
   0.0550   2153710
   0.0600   2009020
   0.0650   1928210
   0.0700   1917650
   0.0750   1906220
   0.0800   1942280
   0.0850   1993460
   0.0900   2040560
   0.0950   2121610
   0.1000   2204200
   0.1050   2274200
   0.1100   2352410
   0.1150   2433160
   0.1200   2503700
   0.1250   2580690
   0.1300   2661390
   0.1350   2728080
   0.1400   2785940
   0.1450   2847120
   0.1500   2918160
   0.1550   2965310
   0.1600   3022900
   0.1650   3078800
   0.1700   3116230
   0.1750   3176110
   0.1800   3219210
   0.1850   3251180
   0.1900   3280650
   0.1950   3288380
   0.2000   3268400
   0.2050   3203850
   0.2100   3066000
   0.2150   2896160
   0.2200   2658320
   0.2250   2396250
   0.2300   2100770
   0.2350   1808290
   0.2400   1509750
   0.2450   1222730
   0.2500    953032
   0.2550    747770
   0.2600    579001
   0.2650    441774
   0.2700    359040
   0.2750    311585
   0.2800    278327
   0.2850    247692
   0.2900    217312
   0.2950    187637
   0.3000    159407
   0.3050    139204
   0.3100    125895
   0.3150    116510
   0.3200    110933
   0.3250    104589
   0.3300     96288
   0.3350     87838
   0.3400     78003
   0.3450     69682
   0.3500     64287
   0.3550     60269
   0.3600     57585
   0.3650     55302
   0.3700     53140
   0.3750     49567
   0.3800     45584
   0.3850     41535
   0.3900     38025
   0.3950     35402
   0.4000     34037
   0.4050     32630
   0.4100     31885
   0.4150     30944
   0.4200     29254
   0.4250     27516
   0.4300     24979
   0.4350     22850
   0.4400     21615
   0.4450     20136
   0.4500     19774
   0.4550     19528
   0.4600     19318
   0.4650     18568
   0.4700     17632
   0.4750     16311
   0.4800     14749
   0.4850     13754
   0.4900     12641
   0.4950     12630
   0.5000     12225
   0.5050     12573
   0.5100     12331
   0.5150     11989
   0.5200     11330
   0.5250     10593
   0.5300      9620
   0.5350      8776
   0.5400      8263
   0.5450      7894
   0.5500      7871
   0.5550      8154
   0.5600      8183
   0.5650      7929
   0.5700      7570
   0.5750      7108
   0.5800      6282
   0.5850      5833
   0.5900      5598
   0.5950      5345
   0.6000      5268
   0.6050      5515
   0.6100      5455
   0.6150      5410
   0.6200      5194
   0.6250      4721
   0.6300      4508
   0.6350      4013
   0.6400      3751
   0.6450      3526
   0.6500      3523
   0.6550      3730
   0.6600      3782
   0.6650      3755
   0.6700      3695
   0.6750      3381
   0.6800      3152
   0.6850      2850
   0.6900      2560
   0.6950      2567
   0.7000      2490
   0.7050      2464
   0.7100      2515
   0.7150      2528
   0.7200      2571
   0.7250      2463
   0.7300      2240
   0.7350      2058
   0.7400      1880
   0.7450      1835
   0.7500      1724
   0.7550      1743
   0.7600      1784
   0.7650      1870
   0.7700      1891
   0.7750      1740
   0.7800      1672
   0.7850      1582
   0.7900      1440
   0.7950      1293
   0.8000      1204
   0.8050      1222
   0.8100      1208
   0.8150      1247
   0.8200      1360
   0.8250      1211
   0.8300      1183
   0.8350      1157
   0.8400      1084
   0.8450      1006
   0.8500       964
   0.8550       910
   0.8600       918
   0.8650       881
   0.8700       888
   0.8750       933
   0.8800       902
   0.8850       841
   0.8900       767
   0.8950       779
   0.9000       753
   0.9050       647
   0.9100       666
   0.9150       660
   0.9200       655
   0.9250       715
   0.9300       708
   0.9350       645
   0.9400       623
   0.9450       572
   0.9500       498
   0.9550       514
   0.9600       515
   0.9650       504
   0.9700       462
   0.9750       469
   0.9800       528
   0.9850       468
   0.9900       486
   0.9950       426
   1.0000       404
   1.0050       392
   1.0100       351
   1.0150       381
   1.0200       373
   1.0250       348
   1.0300       404
   1.0350       353
   1.0400       391
   1.0450       374
   1.0500       324
   1.0550       306
   1.0600       288
   1.0650       287
   1.0700       245
   1.0750       270
   1.0800       267
   1.0850       258
   1.0900       270
   1.0950       263
   1.1000       254
   1.1050       210
   1.1100       199
   1.1150       206
   1.1200       222
   1.1250       224
   1.1300       201
   1.1350       248
   1.1400       228
   1.1450       226
   1.1500       207
   1.1550       170
   1.1600       156
   1.1650       165
   1.1700       150
   1.1750       163
   1.1800       155
   1.1850       160
   1.1900       170
   1.1950       140
   1.2000       161
   1.2050       135
   1.2100       128
   1.2150       132
   1.2200        93
   1.2250       112
   1.2300       115
   1.2350       107
   1.2400       137
   1.2450       110
   1.2500       126
   1.2550       100
   1.2600        86
   1.2650        95
   1.2700        92
   1.2750       102
   1.2800        89
   1.2850        90
   1.2900        89
   1.2950        81
   1.3000        87
   1.3050        84
   1.3100        89
   1.3150        85
   1.3200        90
   1.3250        68
   1.3300        68
   1.3350        59
   1.3400        90
   1.3450        67
   1.3500        70
   1.3550        60
   1.3600        79
   1.3650        69
   1.3700        69
   1.3750        54
   1.3800        61
   1.3850        46
   1.3900        63
   1.3950        71
   1.4000        54
   1.4050        55
   1.4100        55
   1.4150        54
   1.4200        37
   1.4250        46
   1.4300        47
   1.4350        58
   1.4400        48
   1.4450        65
   1.4500        47
   1.4550        49
   1.4600        46
   1.4650        45
   1.4700        33
   1.4750        33
   1.4800        31
   1.4850        31
   1.4900        30
   1.4950        34
   1.5000        36
   1.5050        27
   1.5100        46
   1.5150        30
   1.5200        21
   1.5250        32
   1.5300        38
   1.5350        28
   1.5400        31
   1.5450        19
   1.5500        24
   1.5550        20
   1.5600        30
   1.5650        25
   1.5700        34
   1.5750        29
   1.5800        26
   1.5850        19
   1.5900        24
   1.5950        16
   1.6000        11
   1.6050        17
   1.6100        19
   1.6150        29
   1.6200        22
   1.6250        19
   1.6300        16
   1.6350        18
   1.6400        21
   1.6450        10
   1.6500        14
   1.6550        14
   1.6600        23
   1.6650        25
   1.6700        14
   1.6750        21
   1.6800        21
   1.6850        12
   1.6900        15
   1.6950        13
   1.7000        15
   1.7050         9
   1.7100        14
   1.7150        12
   1.7200        11
   1.7250        10
   1.7300        10
   1.7350        15
   1.7400        14
   1.7450         8
   1.7500        10
   1.7550         9
   1.7600         8
   1.7650        17
   1.7700        18
   1.7750        13
   1.7800         6
   1.7850        13
   1.7900        10
   1.7950         6
   1.8000         9
   1.8050        12
   1.8100        11
   1.8150        14
   1.8200         9
   1.8250         9
   1.8300         9
   1.8350         5
   1.8400         7
   1.8450        11
   1.8500         7
   1.8550         7
   1.8600         5
   1.8650        11
   1.8700        12
   1.8750         7
   1.8800         7
   1.8850         8
   1.8900         6
   1.8950         3
   1.9000         7
   1.9050         5
   1.9100         6
   1.9150         5
   1.9200         6
   1.9250        15
   1.9300        10
   1.9350         8
   1.9400         2
   1.9450         2
   1.9500         7
   1.9550         4
   1.9600         6
   1.9650         5
   1.9700         4
   1.9750         4
   1.9800         7
   1.9850         8
   1.9900         5
   1.9950         5
   2.0000         5
   2.0050         3
   2.0100         4
   2.0150         6
   2.0200         3
   2.0250         9
   2.0300         8
   2.0350         6
   2.0400         5
   2.0450         9
   2.0500         5
   2.0550         3
   2.0600         7
   2.0650         2
   2.0700         7
   2.0750         2
   2.0800         5
   2.0850         6
   2.0900         2
   2.0950         4
   2.1000         6
   2.1050         5
   2.1100         5
   2.1150         5
   2.1200         4
   2.1250         5
   2.1300         3
   2.1350         4
   2.1400         3
   2.1450         2
   2.1500         4
   2.1550         5
   2.1600         4
   2.1650         5
   2.1700         0
   2.1750         3
   2.1800         5
   2.1850         1
   2.1900         6
   2.1950         2
   2.2000         1
   2.2050         3
   2.2100         2
   2.2150         5
   2.2200         2
   2.2250         3
   2.2300         4
   2.2350         5
   2.2400         0
   2.2450         0
   2.2500         7
   2.2550         1
   2.2600         3
   2.2650         3
   2.2700         0
   2.2750         4
   2.2800         2
   2.2850         3
   2.2900         1
   2.2950         0
   2.3000         3
   2.3050         3
   2.3100         1
   2.3150         0
   2.3200         2
   2.3250         3
   2.3300         2
   2.3350         3
   2.3400         1
   2.3450         4
   2.3500         5
   2.3550         5
   2.3600         1
   2.3650         4
   2.3700         4
   2.3750         2
   2.3800         1
   2.3850         1
   2.3900         2
   2.3950         1
   2.4000         3
   2.4050         0
   2.4100         2
   2.4150         1
   2.4200         0
   2.4250         3
   2.4300         2
   2.4350         1
   2.4400         4
   2.4450         3
   2.4500         1
   2.4550         2
   2.4600         3
   2.4650         0
   2.4700         4
   2.4750         4
   2.4800         0
   2.4850         3
   2.4900         0
   2.4950         2
   2.5000         0
